Frame,Time(ms),∠ABC,∠BCD
0,6431,167.16792282021305,177.27070332919564
1,6464,167.16792282021305,177.02568470337863
2,6497,167.3939534868511,176.7996540367408
3,6531,166.5781649321138,177.54303632354262
4,6564,166.69222269504644,177.02568470337863
5,6597,167.03141280070096,176.50505517794102
6,6631,167.35060604177545,176.77059521388068
7,6664,167.35060604177545,176.77059521388068
8,6697,166.8744747901336,176.77059521388068
9,6731,166.8744747901336,177.0384054245448
10,6764,167.1923308103613,176.52557658806393
11,6797,166.7573353520241,176.7996540367408
12,6831,167.35060604177545,176.2598536241896
13,6864,167.35060604177545,176.77059521388068
14,6897,166.8744747901336,176.77059521388068
15,6931,167.25486389349797,176.5471441210839
16,6964,166.8744747901336,177.01334364887893
17,6997,167.1923308103613,176.77059521388068
18,7031,167.03141280070096,176.50505517794102
19,7064,167.62683996580665,176.49436128984973
20,7097,166.8744747901336,176.77059521388068
21,7131,166.6488671887457,176.99620281526882
22,7164,166.8744747901336,176.52557658806393
23,7197,167.62683996580665,176.76217150051377
24,7231,166.93390746504897,176.8149543317479
25,7264,167.37369990959573,176.53918030508297
26,7297,167.5306379201631,176.53918030508297
27,7331,166.8744747901336,177.0384054245448
28,7364,166.8744747901336,177.0384054245448
29,7397,167.46856473439252,176.76217150051377
30,7431,166.8744747901336,177.0384054245448
31,7464,167.25486389349797,176.30212549526692
32,7497,167.25486389349797,176.5471441210839
33,7531,167.15070871416475,176.49436128984973
34,7564,167.46856473439252,176.49436128984973
35,7597,167.03141280070096,177.0384054245448
36,7631,166.8744747901336,176.7935926355859
37,7664,167.62683996580665,176.24934266403267
38,7697,167.62683996580665,176.49436128984973
39,7731,167.24340447053336,176.7195215537089
40,7764,167.35060604177545,176.7935926355859
41,7797,166.8744747901336,177.0384054245448
42,7831,167.03141280070096,177.0384054245448
43,7864,167.8498311612376,176.0263514686018
44,7897,166.8744747901336,176.52557658806393
45,7931,167.1923308103613,176.52557658806393
46,7964,167.73410079517856,176.0548137709624
47,7997,166.7573353520241,176.7996540367408
48,8031,167.13992355056803,176.3284553951322
49,8064,167.82938971207076,176.2598536241896
50,8097,167.66803093552795,176.01237699220297
51,8131,167.55531226339392,176.5523423124364
52,8164,167.28337853280252,176.82427604302757
53,8197,167.32928159675586,177.02568470337863
54,8231,167.39841160849736,176.53393107286658
55,8264,166.85049792646052,177.02568470337863
56,8297,166.69222269504644,177.02568470337863
57,8331,166.85049792646052,177.02568470337863
58,8364,167.23657225370465,176.2864544408799
59,8397,167.16792282021305,176.51248510751785
60,8431,166.73820859271984,176.78481810186474
61,8464,166.81759733645933,176.57576711943662
62,8497,166.81759733645933,177.08859595591778
63,8531,166.6488671887457,177.23895125026695
64,8564,167.35060604177545,177.0384054245448
65,8597,167.35060604177545,176.77059521388068
66,8631,167.12499844038754,176.73066277932907
67,8664,167.0765285930986,177.04467266255776
68,8697,167.16792282021305,177.27070332919564
69,8731,166.96463852311325,177.31660639314916
70,8764,167.0765285930986,176.7996540367408
71,8797,166.85049792646052,177.27070332919564
72,8831,167.16792282021305,177.27070332919564
73,8864,167.66803093552795,176.2598536241896
74,8897,167.35060604177545,176.2598536241896
75,8931,167.35060604177545,176.2598536241896
76,8964,167.0765285930986,176.7996540367408
77,8997,167.0765285930986,176.7996540367408
78,9031,167.3939534868511,176.53393107286658
79,9064,167.3939534868511,176.53393107286658
80,9097,166.96463852311325,177.05106635720927
81,9131,167.0765285930986,176.27048317430607
82,9164,165.6875485121887,176.80586480345795
83,9197,166.96463852311325,177.31660639314916
84,9231,166.86840203048004,176.5815656756505
85,9264,166.85049792646052,177.00516329325578
86,9297,167.55531226339392,176.53393107286658
87,9331,167.05694860240908,177.2774962876027
88,9364,166.6670057589955,177.26087880072205
89,9397,167.14530441798226,176.99743090216154
90,9431,167.14530441798226,176.981740797844
91,9464,167.14530441798226,176.99743090216154
92,9497,167.05694860240908,177.03229473385147
93,9531,167.8106724931269,176.74187595111763
94,9564,167.14530441798226,177.2427930123352
95,9597,167.37388848485307,177.03229473385147
96,9631,166.78676971590264,176.79140663117133
97,9664,166.55782330537457,177.77662158463724
98,9697,167.14530441798226,177.2427930123352
99,9731,167.37388848485307,176.25991626502088
100,9764,167.49496647185458,176.81221986221635
101,9797,167.05694860240908,176.50765590610789
102,9831,166.78676971590264,177.0390257217973
103,9864,166.39646452883176,177.53142003088584
104,9897,167.4465375185118,176.54241690489744
105,9931,166.6670057589955,177.2427930123352
106,9964,167.4465375185118,176.54241690489744
107,9997,167.28337853280252,176.29479781427142
108,10031,167.2681606122737,177.0390257217973
109,10064,166.82836453553827,176.981740797844
110,10097,166.78676971590264,177.30247362035763
111,10131,166.82836453553827,177.2427930123352
112,10164,167.05694860240908,176.7688468352909
113,10197,167.05694860240908,177.03229473385147
114,10231,167.37388848485307,176.52122774466497
115,10264,166.82836453553827,176.73623997297875
116,10297,167.05694860240908,176.52122774466497
117,10331,166.82836453553827,177.5060803544734
118,10364,167.4465375185118,177.05106635720927
119,10397,167.4835746978917,176.74187595111763
120,10431,166.85049792646052,177.00516329325578
121,10464,166.48540162143271,176.80586480345795
122,10497,166.96463852311325,177.05106635720927
123,10531,167.23657225370465,176.51584528447964
124,10564,166.96463852311325,176.80586480345795
125,10597,167.0765285930986,176.53393107286658
126,10631,167.23657225370465,176.53393107286658
127,10664,167.0765285930986,176.53393107286658
128,10697,167.0765285930986,176.53393107286658
129,10731,167.0765285930986,176.7996540367408
130,10764,167.35060604177545,176.2598536241896
131,10797,167.35060604177545,176.2598536241896
132,10831,167.66803093552795,176.2598536241896
133,10864,167.66803093552795,176.2598536241896
134,10897,166.85049792646052,177.27070332919564
135,10931,166.69222269504644,177.02568470337863
136,10964,167.3939534868511,176.7996540367408
137,10997,167.3939534868511,176.7996540367408
138,11031,166.69222269504644,177.02568470337863
139,11064,166.96672320897343,176.73066277932907
140,11097,167.0765285930986,177.31248287322194
141,11131,167.35060604177545,176.77059521388068
142,11164,166.6488671887457,177.23895125026695
143,11197,166.8744747901336,177.0384054245448
144,11231,166.8744747901336,176.52557658806393
145,11264,166.7573353520241,176.7996540367408
146,11297,166.86840203048004,176.8472886395247
147,11331,167.35060604177545,176.52557658806393
148,11364,166.8744747901336,176.77059521388068
149,11397,166.66026584087908,176.57576711943662
150,11431,167.41356517473793,176.78989255608192
151,11464,166.43637892357506,177.2874210975558
152,11497,166.7104563722519,176.50505517794102
153,11531,166.7104563722519,176.77059521388068
154,11564,167.41356517473793,176.5471441210839
155,11597,167.03141280070096,176.77059521388068
156,11631,166.66026584087908,176.84378316695876
157,11664,168.00987482184362,176.53918030508297
158,11697,166.93390746504897,176.8149543317479
159,11731,167.37369990959573,176.29436751612388
160,11764,167.5306379201631,176.53918030508297
161,11797,167.25486389349797,176.8149543317479
162,11831,166.93390746504897,176.8149543317479
163,11864,167.15070871416475,176.76217150051377
164,11897,166.8744747901336,177.0384054245448
165,11931,166.93390746504897,176.5471441210839
166,11964,167.15070871416475,176.49436128984973
167,11997,167.15070871416475,176.49436128984973
168,12031,166.5548824890362,177.0384054245448
169,12064,166.8744747901336,177.0384054245448
170,12097,166.28080504035935,177.06767008426294
171,12131,167.62683996580665,176.24934266403267
172,12164,167.62683996580665,176.49436128984973
173,12197,167.15070871416475,176.24934266403267
174,12231,167.15070871416475,176.24934266403267
175,12264,166.8744747901336,176.7935926355859
176,12297,167.03141280070096,177.0384054245448
177,12331,167.15070871416475,176.24934266403267
178,12364,167.25486389349797,176.30212549526692
179,12397,166.6488671887457,176.99620281526882
180,12431,166.6488671887457,176.75118418945192
181,12464,167.35060604177545,176.52557658806393
182,12497,167.44242333414005,176.75118418945192
183,12531,167.00833714016244,177.02568470337863
184,12564,167.28283765408943,176.23798459359102
185,12597,167.16792282021305,176.7783729790743
186,12631,166.9397246033896,177.2538829202022
187,12664,167.23657225370465,176.53393107286658
188,12697,166.5781649321138,177.29801769772553
189,12731,167.23657225370465,176.7996540367408
190,12764,166.6441029026726,177.07158776733215
191,12797,166.6441029026726,176.82427604302757
192,12831,167.23657225370465,176.7996540367408
193,12864,166.6441029026726,177.07158776733215
194,12897,166.73820859271984,177.29801769772553
195,12931,167.0105415870666,177.02568470337863
196,12964,167.0105415870666,177.02568470337863
197,12997,167.0105415870666,177.02568470337863
198,13031,166.96463852311325,176.82427604302757
199,13064,166.80459486250723,176.82427604302757
200,13097,167.23657225370465,176.5523423124364
201,13131,166.6441029026726,176.82427604302757
202,13164,166.96463852311325,176.82427604302757
203,13197,166.25897169103928,177.5660337452476
204,13231,167.46045917100867,176.3284553951322
205,13264,166.6441029026726,176.82427604302757
206,13297,166.96463852311325,176.82427604302757
207,13331,167.23657225370465,176.5523423124364
208,13364,167.23657225370465,176.2864544408799
209,13397,167.82938971207076,176.27826486375943
210,13431,166.85049792646052,177.02568470337863
211,13464,166.85049792646052,177.02568470337863
212,13497,166.85049792646052,176.75996173950452
213,13531,167.23657225370465,176.7996540367408
214,13564,167.23657225370465,176.5523423124364
215,13597,167.23657225370465,176.5523423124364
216,13631,166.6441029026726,176.82427604302757
217,13664,167.23657225370465,176.5523423124364
218,13697,167.0765285930986,176.5523423124364
219,13731,167.0765285930986,176.5523423124364
220,13764,167.23657225370465,176.53393107286658
221,13797,167.55531226339392,176.7996540367408
222,13831,167.23657225370465,176.5523423124364
223,13864,167.23657225370465,176.2864544408799
224,13897,166.96463852311325,176.82427604302757
225,13931,166.96463852311325,176.82427604302757
226,13964,167.23657225370465,176.5523423124364
227,13997,167.23657225370465,176.2864544408799
228,14031,167.23657225370465,176.2864544408799
229,14064,167.3939534868511,176.5523423124364
230,14097,167.55531226339392,176.7996540367408
231,14131,167.23657225370465,176.7996540367408
232,14164,167.55531226339392,176.2864544408799
233,14197,167.23657225370465,176.2864544408799
234,14231,167.0765285930986,176.2864544408799
235,14264,166.80459486250723,176.82427604302757
236,14297,167.0765285930986,176.2864544408799
237,14331,166.85049792646052,176.75996173950452
238,14364,166.85049792646052,177.02568470337863
239,14397,166.91375693010554,176.2864544408799
240,14431,166.85049792646052,177.02568470337863
241,14464,167.23657225370465,176.53393107286658
242,14497,167.23657225370465,176.7996540367408
243,14531,167.23657225370465,176.53393107286658
244,14564,166.91603663326404,176.2864544408799
245,14597,167.0765285930986,176.2864544408799
246,14631,167.3939534868511,176.5523423124364
247,14664,167.16792282021305,177.02568470337863
248,14697,167.23657225370465,176.53393107286658
249,14731,167.23657225370465,176.2864544408799
250,14764,166.48540162143271,176.55838817147128
251,14797,167.0765285930986,176.2864544408799
252,14831,166.5781649321138,177.29801769772553
253,14864,166.80459486250723,176.82427604302757
254,14897,167.77919918069793,176.06256752357584
255,14931,167.3939534868511,176.2864544408799
256,14964,167.55531226339392,176.2864544408799
257,14997,166.96463852311325,176.55838817147128
258,15031,167.55531226339392,176.2864544408799
259,15064,167.23657225370465,176.02286408368025
260,15097,166.85049792646052,176.24889475031807
261,15131,166.85049792646052,176.51248510751785
262,15164,167.23657225370465,176.02286408368025
263,15197,167.23657225370465,176.2864544408799
264,15231,166.96463852311325,176.82427604302757
265,15264,167.23657225370465,176.2864544408799
266,15297,166.85049792646052,176.51248510751785
267,15331,166.85049792646052,176.24889475031807
268,15364,166.85049792646052,176.51248510751785
269,15397,167.23657225370465,176.2864544408799
270,15431,166.96463852311325,176.82427604302757
271,15464,167.55531226339392,176.2864544408799
272,15497,167.55531226339392,176.2864544408799
273,15531,166.96463852311325,176.55838817147128
274,15564,167.23657225370465,176.2864544408799
275,15597,167.23657225370465,176.02286408368025
276,15631,167.55531226339392,176.2864544408799
277,15664,167.55531226339392,176.2864544408799
278,15697,166.96463852311325,176.55838817147128
279,15731,167.55531226339392,176.2864544408799
280,15764,167.55531226339392,176.2864544408799
281,15797,167.16792282021305,177.02568470337863
282,15831,167.9423581664072,175.81279336565325
283,15864,167.18893765092068,176.3503490957933
284,15897,166.80459486250723,176.57464822360063
285,15931,166.96463852311325,176.82427604302757
286,15964,166.96463852311325,176.82427604302757
287,15997,167.18893765092068,176.3503490957933
288,16031,167.55531226339392,176.5523423124364
289,16064,167.55531226339392,176.2864544408799
290,16097,167.23657225370465,176.2864544408799
291,16131,166.96463852311325,176.82427604302757
292,16164,167.23657225370465,176.2864544408799
293,16197,167.23657225370465,176.5523423124364
294,16231,166.96463852311325,176.82427604302757
295,16264,166.80459486250723,176.82427604302757
296,16297,166.80459486250723,176.82427604302757
297,16331,167.23657225370465,176.5523423124364
298,16364,167.0765285930986,176.5523423124364
299,16397,167.0765285930986,176.5523423124364
300,16431,166.96463852311325,176.82427604302757
301,16464,167.3939534868511,176.5523423124364
302,16497,166.85049792646052,176.75996173950452
303,16531,167.0105415870666,176.75996173950452
304,16564,167.39841160849736,176.53393107286658
305,16597,167.23657225370465,176.53393107286658
306,16631,167.82938971207076,176.01237699220297
307,16664,167.23657225370465,176.5523423124364
308,16697,167.23657225370465,176.2864544408799
309,16731,167.23657225370465,176.2864544408799
310,16764,167.39841160849736,176.2864544408799
311,16797,167.39841160849736,176.02286408368025
312,16831,166.73820859271984,176.2713297667649
313,16864,167.2201075881184,176.2713297667649
314,16897,167.2201075881184,176.2713297667649
315,16931,166.94992870161192,176.28930982303623
316,16964,166.72098229108383,176.7704550637995
317,16997,167.70462217900072,175.7576349903561
318,17031,166.9915235212476,176.2385005005027
319,17064,166.72098229108383,176.25676028739065
320,17097,166.72098229108383,176.25676028739065
321,17131,167.30975543190934,175.47240033633844
322,17164,166.93711920806783,175.75438921589713
323,17197,166.86974876540614,175.69133508347505
324,17231,166.49592366089743,174.9324866542587
325,17264,165.79465978885207,174.90929721477104
326,17297,165.34091216127402,174.6431282358434
327,17331,164.7673697235421,173.30508151414938
328,17364,164.09189328826938,173.1707423850897
329,17397,163.53742070047116,172.83164343280387
330,17431,163.06730989841645,173.11017182610786
331,17464,162.68139098331127,172.69264709309883
332,17497,162.98830087865733,172.20153985432037
333,17531,162.17347906221943,172.4094997072403
334,17564,162.44692178641003,172.3375420897431
335,17597,161.86191784440268,172.42630928790493
336,17631,162.16980622162376,172.12334704943467
337,17664,161.66357710178414,172.6295761692743
338,17697,161.83223200914242,172.0457616275086
339,17731,161.86221974753107,172.1402779448472
340,17764,161.29783725059394,172.2174331810512
341,17797,161.88785525402,171.62738668118064
342,17831,161.07416939409143,171.64843521666722
343,17864,161.09590332275556,171.62395350412928
344,17897,161.09590332275556,171.13953235020344
345,17931,161.29763167277636,170.96834344713386
346,17964,160.79011709349643,171.3349742666703
347,17997,159.7753690691909,171.35854569289816
348,18031,160.5893014364479,170.5631289744429
349,18064,159.99343978739452,170.0577802051965
350,18097,159.9826972544594,169.9532282075239
351,18131,160.2111604303659,169.55462634222337
352,18164,159.70315054885336,169.5888549997237
353,18197,159.40690743910227,169.56346261503163
354,18231,159.91897127852013,169.41410647833158
355,18264,159.10595244410035,169.6001638360735
356,18297,159.9247829957741,168.4827254412891
357,18331,159.11202861724234,168.94432722154852
358,18364,159.32294400554528,168.61889820677084
359,18397,158.80917961336425,167.8292801060662
360,18431,158.81394306092292,168.80089955525386
361,18464,158.81394306092292,168.33828105068852
362,18497,158.81394306092292,167.67971264284114
363,18531,158.3067278453416,168.3177956185818
364,18564,158.21537776660278,167.72763967854902
365,18597,158.21316543392805,168.16210149484115
366,18631,157.4021295919591,167.8766569718359
367,18664,157.18347109994863,167.39706781689824
368,18697,156.89099113037125,167.5673078178423
369,18731,156.57779961429944,167.42896190364428
370,18764,156.56474455188703,167.0701898268008
371,18797,156.2886980159513,167.2594246420262
372,18831,155.97243683288664,166.10938294509882
373,18864,155.33369841667692,165.52755909273685
374,18897,154.74459917852488,165.13865774450534
375,18931,153.8351137575469,164.84338651756931
376,18964,153.48108952582774,165.07956704362527
377,18997,153.14847231264497,164.36847622874643
378,19031,153.14847231264497,163.95281860724384
379,19064,152.12058288837264,164.51902706003142
380,19097,152.5678045000486,163.75548164185693
381,19131,151.9763436917099,163.72696234067323
382,19164,151.13921807219657,164.21277429027123
383,19197,151.1011296341738,163.49588779497134
384,19231,151.06075475522587,163.28286299698206
385,19264,150.32812741027703,162.85864528858397
386,19297,150.25418565341346,162.98936139963908
387,19331,149.85049421845397,162.95330052561744
388,19364,149.89631087132835,162.75544152168652
389,19397,148.89163836791587,162.7320673156979
390,19431,149.428881953691,162.37696463292366
391,19464,148.70385626492157,162.16147236134205
392,19497,149.12673889933106,161.80197293110277
393,19531,148.16575382515856,162.1610943603385
394,19564,148.2405199151872,161.565051177078
395,19597,147.3225650833389,161.8158168032519
396,19631,147.56893079748994,161.45780675034965
397,19664,147.09173083819843,160.86159127971536
398,19697,146.2865331296955,161.22679146681503
399,19731,146.16713599090798,160.5429927310152
400,19764,145.32822203127523,160.2828687400493
401,19797,144.6792684620802,160.25316339457387
402,19831,144.3041787010592,159.52449340368474
403,19864,144.47079165061183,159.50087147589107
404,19897,143.55043366541955,159.16566464604458
405,19931,144.0933338369755,158.81024191170286
406,19964,143.46248893434554,159.18884287381718
407,19997,143.1718327033052,158.83406087577777
408,20031,143.3400046835693,158.86358926738328
409,20064,143.08277283263536,158.80333639265794
410,20097,143.08277283263536,158.09294495121085
411,20131,142.3323941695929,157.779702971886
412,20164,142.66319041885808,156.99242686828168
413,20197,141.8984423385869,157.75717494855283
414,20231,141.26268027030886,157.43616753539857
415,20264,142.18946601745915,156.27210346282814
416,20297,140.94787146291975,156.6195724321441
