Frame,Time(ms),∠ABC,∠BCD
0,69,170.27631247775875,173.83658223359424
1,102,169.6505480287523,174.2259979065833
2,135,170.27631247775875,173.51458326018735
3,169,170.27631247775875,173.51458326018735
4,202,169.6505480287523,173.90399893317644
5,235,170.03996370174133,173.51458326018735
6,269,170.03996370174133,173.51458326018735
7,302,170.03996370174133,173.83658223359424
8,335,170.43072652572832,173.12382043620048
9,369,169.80346920048834,173.51458326018735
10,402,170.03996370174133,173.51458326018735
11,435,170.03996370174133,173.51458326018735
12,469,169.6505480287523,173.90399893317644
13,502,170.51250762739787,173.1939472902208
14,535,170.51250762739787,173.1939472902208
15,569,169.88689680476975,173.5833629632099
16,602,170.17669744311632,173.29356232486325
17,635,169.7662448775246,174.006100006295
18,669,170.17669744311632,173.61419829482983
19,702,169.94034866709887,173.61419829482983
20,735,170.17669744311632,173.61419829482983
21,769,170.05769501317636,173.51458326018735
22,802,169.82022552218584,173.51458326018735
23,835,169.70385416584594,173.61419829482983
24,869,170.05769501317636,173.83658223359424
25,902,169.82022552218584,173.71593344256624
26,935,169.82022552218584,173.83658223359424
27,969,170.4484578371634,173.12382043620048
28,1002,169.43080984919678,174.2259979065833
29,1035,169.83712136120275,173.51458326018735
30,1069,169.95807997853396,173.73504503913668
31,1102,170.07557387035968,173.51458326018735
32,1135,170.05769501317636,173.51458326018735
33,1169,170.07557387035968,173.51458326018735
34,1202,169.5661782670688,174.006100006295
35,1235,170.07557387035968,173.51458326018735
36,1269,170.05769501317636,173.83658223359424
37,1302,169.83712136120275,173.63543000449422
38,1335,169.83712136120275,173.51458326018735
39,1369,169.73750632656038,173.73504503913668
40,1402,169.44770568821377,174.34529537964073
41,1435,169.44770568821377,173.90399893317644
42,1469,169.83712136120275,173.63543000449422
43,1502,169.44770568821377,174.2259979065833
44,1535,169.73750632656038,173.73504503913668
45,1569,169.83712136120275,173.63543000449422
46,1602,169.56546776143787,174.12527293648864
47,1635,169.59852759280497,173.63543000449422
48,1669,169.59852759280497,173.63543000449422
49,1702,169.4830014840053,173.85455032740228
50,1735,169.4830014840053,174.0554947412942
51,1769,169.4830014840053,173.73504503913668
52,1802,169.59852759280497,173.63543000449422
53,1835,169.58261651864777,173.95587970665167
54,1869,170.3236681702758,173.14888319542135
55,1902,169.83712136120275,173.95587970665167
56,1935,169.9353891279825,173.41631549340767
57,1969,170.2278841851898,173.2446671805073
58,2002,170.2278841851898,173.2446671805073
59,2035,169.83712136120275,173.95587970665167
60,2069,169.83712136120275,173.63543000449422
61,2102,169.9353891279825,173.41631549340767
62,2135,169.3098368899106,173.80327396308178
63,2169,169.95242623111199,173.09567952344116
64,2202,169.9353891279825,173.09567952344116
65,2235,169.54843065830843,173.48263799311522
66,2269,169.6861581973707,173.90399893317644
67,2302,169.44770568821377,173.70573735959854
68,2335,169.6861581973707,173.70573735959854
69,2369,169.5840571242521,173.807838432717
70,2402,169.3456046150952,173.807838432717
71,2435,169.44770568821377,173.5833629632099
72,2469,169.83712136120275,173.1939472902208
73,2502,169.73750632656038,173.41593672125188
74,2535,169.59852759280497,173.63543000449422
75,2569,169.6967953595847,173.41631549340767
76,2602,170.08507440187796,173.02803645111445
77,2635,169.3598007215629,173.63543000449422
78,2669,169.3448760593547,173.95587970665167
79,2702,169.84634753063582,173.46933289757882
80,2735,169.84634753063582,173.14888319542135
81,2769,169.3448760593547,173.95587970665167
82,2802,169.73563888334178,173.2446671805073
83,2835,169.73563888334178,173.2446671805073
84,2869,169.84634753063582,173.14888319542135
85,2902,169.73563888334178,173.2446671805073
86,2935,169.3448760593547,173.63543000449422
87,2969,169.58261651864777,173.63543000449422
88,3002,169.58261651864777,173.3163216866094
89,3035,169.53153481929144,173.48263799311522
90,3069,169.6505480287523,173.07158951743793
91,3102,169.34807791256424,173.2311094045309
92,3135,169.46190715883648,173.45962920546492
93,3169,169.46190715883648,173.45962920546492
94,3202,169.33063627550385,173.3564740523612
95,3235,169.58346141571982,173.3564740523612
96,3269,169.5650623119402,173.3564740523612
97,3302,169.58346141571982,173.3564740523612
98,3335,169.5650623119402,173.3564740523612
99,3369,168.8235460952534,173.97025545590768
100,3402,169.5650623119402,173.48046472546758
101,3435,169.5650623119402,173.48046472546758
102,3469,169.5650623119402,173.3564740523612
103,3502,169.05055753685753,173.6365527910075
104,3535,169.5650623119402,173.3564740523612
105,3569,169.5650623119402,173.3564740523612
106,3602,169.5650623119402,173.3564740523612
107,3635,169.95067181695808,172.97086454734327
108,3669,169.34807791256424,173.3564740523612
109,3702,169.34807791256424,173.3564740523612
110,3735,169.33063627550385,173.67286622813657
111,3769,169.58346141571982,173.67286622813657
112,3802,169.22748112240015,173.45962920546492
113,3835,169.7336874175822,172.97086454734327
114,3869,169.11255047003908,173.3564740523612
115,3902,168.9929129034511,173.77602138124024
116,3935,169.63296244748756,173.07158951743793
117,3969,169.7336874175822,173.16337634513226
118,4002,169.0093953169354,173.65214100325392
119,4035,169.7336874175822,172.84549989951284
120,4069,169.63296244748756,172.9462248696076
121,4102,169.6505480287523,173.07158951743793
122,4135,169.8683459506432,173.2641013152269
123,4169,169.63296244748756,172.81946450227983
124,4202,169.2625083407252,173.65214100325392
125,4235,169.02601383947228,173.65214100325392
126,4269,169.5484469556337,173.0483259427261
127,4302,169.6505480287523,173.1388356623239
128,4335,168.92145445655493,173.63143473326812
129,4369,169.5484469556337,172.9215655753984
130,4402,169.66827934018735,173.1388356623239
131,4435,169.66827934018735,173.1388356623239
132,4469,169.5484469556337,173.24093673544243
133,4502,169.1579489578079,173.63143473326812
134,4535,169.5484469556337,172.9215655753984
135,4569,169.66827934018735,172.81946450227983
136,4602,169.175680269243,173.63143473326812
137,4635,169.80350021734853,173.24093673544243
138,4669,169.90560129046713,173.0121625857479
139,4702,169.80350021734853,173.24093673544243
140,4735,169.5661782670688,173.24093673544243
141,4769,169.5484469556337,173.24093673544243
142,4802,169.5484469556337,173.24093673544243
143,4835,169.80350021734853,173.24093673544243
144,4869,169.5661782670688,173.24093673544243
145,4902,169.5661782670688,173.24093673544243
146,4935,169.1579489578079,173.63143473326812
147,4969,169.66827934018735,173.0121625857479
148,5002,169.5661782670688,173.24093673544243
149,5035,169.5484469556337,173.24093673544243
150,5069,169.66827934018735,173.0121625857479
151,5102,169.66827934018735,173.0121625857479
152,5135,169.5661782670688,173.24093673544243
153,5169,169.5661782670688,173.24093673544243
154,5202,169.5484469556337,173.24093673544243
155,5235,169.5661782670688,173.24093673544243
156,5269,169.32870877607823,173.24093673544243
157,5302,169.5661782670688,173.43656994809115
158,5335,169.43080984919678,173.0121625857479
159,5369,169.43080984919678,173.0121625857479
160,5402,169.94034866709887,172.72236194740134
161,5435,170.05769501317636,172.6227469127588
162,5469,169.43080984919678,173.0121625857479
163,5502,169.43080984919678,173.0121625857479
164,5535,169.66827934018735,173.3344688749726
165,5569,169.5484469556337,173.24093673544243
166,5602,169.5484469556337,173.24093673544243
167,5635,169.5661782670688,173.24093673544243
168,5669,169.5484469556337,173.24093673544243
169,5702,169.95807997853396,172.8490350239773
170,5735,169.5661782670688,173.5617152449219
171,5769,169.5661782670688,173.5617152449219
172,5802,168.93821077825245,173.9522132427476
173,5835,169.5661782670688,173.24093673544243
174,5869,169.32870877607823,173.24093673544243
175,5902,169.32870877607823,173.24093673544243
176,5935,169.5661782670688,173.5617152449219
177,5969,169.5661782670688,173.5617152449219
178,6002,169.32870877607823,173.24093673544243
179,6035,169.32870877607823,173.24093673544243
180,6069,169.32870877607823,173.5617152449219
181,6102,169.32870877607823,173.5617152449219
182,6135,169.32870877607823,173.5617152449219
183,6169,169.5661782670688,173.5617152449219
184,6202,169.32870877607823,173.24093673544243
185,6235,169.5661782670688,173.5617152449219
186,6269,169.32870877607823,173.5617152449219
187,6302,169.5661782670688,173.5617152449219
188,6335,169.5661782670688,173.5617152449219
189,6369,169.32870877607823,173.5617152449219
190,6402,169.32870877607823,173.5617152449219
191,6435,169.5661782670688,173.5617152449219
192,6469,169.5661782670688,173.5617152449219
193,6502,169.32870877607823,173.24093673544243
194,6535,169.32870877607823,173.24093673544243
195,6569,169.66827934018735,173.3344688749726
196,6602,169.32870877607823,173.24093673544243
197,6635,169.32870877607823,173.24093673544243
198,6669,169.32870877607823,173.5617152449219
199,6702,169.5661782670688,173.5617152449219
200,6735,169.5661782670688,173.5617152449219
201,6769,169.95807997853396,172.8490350239773
202,6802,169.95807997853396,172.8490350239773
203,6835,169.43080984919678,173.0121625857479
204,6869,169.32870877607823,173.5617152449219
205,6902,169.32870877607823,173.5617152449219
206,6935,169.95807997853396,172.8490350239773
207,6969,169.32870877607823,173.24093673544243
208,7002,169.32870877607823,173.5617152449219
209,7035,169.32870877607823,173.5617152449219
210,7069,169.32870877607823,173.5617152449219
211,7102,169.32870877607823,173.5617152449219
212,7135,169.32870877607823,173.24093673544243
213,7169,169.32870877607823,173.24093673544243
214,7202,169.32870877607823,173.5617152449219
215,7235,169.32870877607823,173.5617152449219
216,7269,169.32870877607823,173.5617152449219
217,7302,169.32870877607823,173.5617152449219
218,7335,169.31195245438076,173.43656994809115
219,7369,169.31195245438076,173.43656994809115
220,7402,169.32870877607823,173.43656994809115
221,7435,169.32870877607823,173.5617152449219
222,7469,169.32870877607823,173.24093673544243
223,7502,169.97595883571728,172.8490350239773
224,7535,170.07557387035968,172.6227469127588
225,7569,170.07557387035968,172.6227469127588
226,7602,169.32870877607823,173.11426365886646
227,7635,169.32870877607823,173.11426365886646
228,7669,169.32870877607823,173.11426365886646
229,7702,169.95807997853396,172.72236194740134
230,7735,169.5661782670688,173.43656994809115
231,7769,169.32870877607823,173.11426365886646
232,7802,169.32870877607823,173.11426365886646
233,7835,169.32870877607823,173.11426365886646
234,7869,169.32870877607823,173.11426365886646
235,7902,169.95807997853396,172.72236194740134
236,7935,169.32870877607823,173.11426365886646
237,7969,169.95807997853396,172.72236194740134
238,8002,169.95807997853396,172.72236194740134
239,8035,169.95807997853396,172.72236194740134
240,8069,169.95807997853396,172.72236194740134
241,8102,169.95807997853396,172.72236194740134
242,8135,169.95807997853396,172.72236194740134
243,8169,169.95807997853396,172.72236194740134
244,8202,169.95807997853396,172.72236194740134
245,8235,169.95807997853396,172.72236194740134
246,8269,169.5661782670688,173.11426365886646
247,8302,169.5484469556337,173.11426365886646
248,8335,169.5661782670688,173.11426365886646
249,8369,169.5661782670688,173.11426365886646
250,8402,169.44494204702826,173.34444164404792
251,8435,169.46267335846335,173.34444164404792
252,8469,169.44494204702826,173.34444164404792
253,8502,169.5661782670688,173.11426365886646
254,8535,169.5661782670688,173.11426365886646
255,8569,169.80350021734853,173.11426365886646
256,8602,169.8223602469986,172.79338731157486
257,8635,169.65016863115017,173.18388530940055
258,8669,169.6700078891915,173.05426652994885
259,8702,169.6700078891915,172.73333800761637
260,8735,169.6700078891915,172.73333800761637
261,8769,169.90798798262588,172.73333800761637
262,8802,169.801996211028,172.51987482394753
263,8835,169.41047250852222,172.77733435576206
264,8869,169.14584932615992,172.64242511492836
265,8902,169.01548496311068,172.26084079450976
266,8935,168.11714221350942,172.5313894530793
267,8969,168.20527096366496,172.31293338466685
268,9002,167.69745038037203,172.30861909917343
269,9035,167.80631010539636,171.81911586242836
270,9069,168.0448524204927,171.9722903273824
271,9102,167.9131785765108,171.64359893276287
272,9135,167.7635246598592,171.8734004751796
273,9169,167.85326611881868,171.79176979308488
274,9202,167.26140033054122,171.40033935233475
275,9235,166.9751979360541,171.1503454289772
276,9269,166.86346093341444,171.0597196336218
277,9302,166.2436669875989,171.82268321691558
278,9335,166.1357020677109,171.13492796132323
279,9369,165.69499257995406,170.6216537007871
280,9402,165.66748682814782,170.8725045422421
281,9435,165.73790296936764,169.98594493832135
282,9469,165.2206830611415,170.26219978609015
283,9502,164.7126106454056,170.33187870759087
284,9535,163.9675452336148,170.11232627191364
285,9569,163.65321314450193,169.41836447905615
286,9602,163.42736334913823,168.86571434215992
287,9635,162.73284659394258,168.3507356431294
288,9669,161.68959471665016,168.03283064159552
289,9702,160.7325198577895,167.72294047630967
290,9735,160.41824606684608,166.86270833825324
291,9769,159.0200570512182,167.0501455267212
292,9802,158.75821013365172,165.95031140955717
293,9835,158.12882073021265,165.30854767352662
294,9869,157.24142991171692,165.2712274855254
295,9902,156.4142817322009,164.88615274598413
296,9935,156.17285997898995,163.91956379135098
297,9969,155.52760083060164,163.59047107809923
298,10002,154.6931386084836,163.21538209060685
299,10035,154.1472139729452,162.5678429345452
300,10069,153.84499619734834,162.68252924486458
301,10102,152.75778420731498,162.03815823092066
302,10135,152.15959014788868,161.3950345261977
303,10169,152.45323228185822,160.62865079141778
304,10202,151.85364717490023,160.6396227829886
305,10235,151.30138359359898,160.58772923660902
306,10269,150.69939872251504,160.42089801891268
307,10302,150.42481165161075,159.8404255763431
308,10335,149.82451388088032,159.19316077949748
309,10369,149.54155050932675,159.16822135059712
310,10402,148.9863777020025,158.99443485296948
311,10435,148.69671495490638,158.3541827653398
312,10469,148.38116310475766,157.72715656912663
313,10502,147.82534037404236,157.55331540185276
314,10535,147.82534037404236,156.77470934010663
315,10569,146.61308191773435,157.66607568382906
316,10602,146.3602360427573,156.54097591853846
317,10635,146.0019798472133,156.6971890249243
318,10669,144.89557522674326,156.49851442192212
319,10702,144.49039002722702,155.66686863942925
320,10735,143.9369830409576,155.16394852887672
321,10769,142.93841609618747,155.74334234970624
322,10802,142.43070314367716,155.04281669021896
323,10835,142.4112713560184,154.84135037730263
324,10869,141.806690823667,154.85048956120252
325,10902,141.55318171607158,154.07519802436127
326,10935,141.25868305878038,153.98708844952867
327,10969,141.12136742661835,153.62675320575252
328,11002,140.57337066657504,153.53217822218616
329,11035,139.71642752395707,153.01526396685207
330,11069,139.17111234726798,153.26522300322802
331,11102,138.98780912572704,152.90024728900764
332,11135,138.73446209194697,152.04004671758855
333,11169,138.44875520333227,151.93113769365902
334,11202,138.1673421059713,151.4618321417395
335,11235,137.2164621200348,151.3418666968494
336,11269,137.0056473713886,150.9634923687684
337,11302,136.72703707076295,150.8679222134926
338,11335,136.19770547480965,149.655163836866
339,11369,135.4920988891792,149.54464031165807
340,11402,134.78349344732024,149.4272601082997
341,11435,134.73100770630353,149.08301170463213
342,11469,134.84478844679268,148.5750559132326
343,11502,134.34272944706032,148.59488563272592
344,11535,134.087461416244,148.23330179413276
345,11569,133.881679614258,147.69143969162127
346,11602,133.95326844412534,146.96580590341816
347,11635,133.82859833941106,147.3467952413159
348,11669,134.08426558036552,146.6226800867868
349,11702,134.0309641132194,147.00637340673825
350,11735,133.3716856744106,146.8285913799799
351,11769,133.44706993629117,146.8285913799799
352,11802,133.70244343625467,146.10369055777784
353,11835,133.57000587326965,145.71927525937355
354,11869,133.90316031943945,145.35660415975798
355,11902,132.9321383883603,146.2758683998452
356,11935,133.18645380818043,145.18514671336328
357,11969,132.6093180402816,145.76228248126205
358,12002,132.94481324010727,145.3387008817919
359,12035,133.02743688166055,145.03881225871405
360,12069,133.53647411467503,144.61236499361536
361,12102,132.74732595452917,145.03959012539008
362,12135,133.00071841681373,144.24501940855012
363,12169,132.51356759319373,144.01801593777287
364,12202,132.11506914329814,144.13567830561908
365,12235,131.96779369545004,144.09515148455648
366,12269,132.13846574220136,142.9382645235455
367,12302,131.65266359880061,143.06668422287137
368,12335,130.93173493553857,143.49609960643102
369,12369,131.27566733406533,142.78116906958874
370,12402,131.36737310950082,142.07123233680585
371,12435,130.39556160592352,142.5829136922459
372,12469,131.05333419193443,141.67777098517237
373,12502,130.73281816680853,141.63065086500046
374,12535,130.1647386221844,141.7329213268596
375,12569,130.57101813392245,140.88325027219454
376,12602,129.32926292745455,141.39925769368202
377,12635,129.51522701388316,140.99825082622988
378,12669,129.6132354361029,140.17377008218565
379,12702,128.90237140334494,140.53982917310918
380,12735,128.8640285064169,140.19517123008592
381,12769,128.30457148722112,139.58455755607486
382,12802,128.13486073727455,139.37152969307215
383,12835,127.83326987366162,139.33187516036568
384,12869,128.0640592635859,138.624139317945
385,12902,127.20221747845508,138.65108025012105
386,12935,126.76856746847605,138.5841192333732
387,12969,126.32313604972414,138.1221304621157
388,13002,126.14569181167813,137.3832632752552
389,13035,125.3772057152036,137.56151323304795
390,13069,124.93832891092647,137.0192071510484
391,13102,124.75455743817032,136.75228802681934
392,13135,124.22058556883982,136.76658453701464
393,13169,124.14358665193775,137.00770149892915
394,13202,124.59735358240613,136.27509693686522
395,13235,123.88001904947201,136.51836866256156
396,13269,123.80277759294047,136.753295970866
397,13302,124.05732754281199,135.90369776692555
398,13335,123.27979107484653,136.4797143000048
399,13369,123.08675736042107,136.17649805875337
400,13402,123.00846032516536,135.77836328026618
401,13435,122.93091730092726,135.692193584983
402,13469,123.18400701389852,134.61636712515502
403,13502,121.97518132894314,135.03217779034557
404,13535,121.9504604864708,135.43065705013737
405,13569,121.49738127130531,135.3425910262183
406,13602,121.87286866814924,134.8003185705749
407,13635,121.6717011419453,134.16659440542182
408,13669,120.7620319573817,134.53117725326172
409,13702,120.27372747745574,134.21624889446014
410,13735,120.1980019165662,134.40889141713015
411,13769,120.60558771471212,133.54066258624601
412,13802,120.39986571650176,133.4470887466378
413,13835,119.94273796554201,133.62236283774584
414,13869,119.73513261672733,133.81109607256784
415,13902,119.88362674872006,133.5133081909725
416,13935,119.99635565333028,132.70938995736148
417,13969,119.08058039126118,133.34837616725284
418,14002,118.8727203200696,132.98163962840837
419,14035,118.20523104705651,133.06319961377895
420,14069,117.88077557789546,132.96880353600127
421,14102,117.67124801723632,132.5828035948487
